  -3.0000000e+00   1.3322676e-15
  -2.9939940e+00   2.9898602e-02
  -2.9879880e+00   5.9732222e-02
  -2.9819820e+00   8.9472325e-02
  -2.9759760e+00   1.1909081e-01
  -2.9699700e+00   1.4856005e-01
  -2.9639640e+00   1.7785286e-01
  -2.9579580e+00   2.0694260e-01
  -2.9519520e+00   2.3580311e-01
  -2.9459459e+00   2.6440879e-01
  -2.9399399e+00   2.9273460e-01
  -2.9339339e+00   3.2075607e-01
  -2.9279279e+00   3.4844929e-01
  -2.9219219e+00   3.7579101e-01
  -2.9159159e+00   4.0275854e-01
  -2.9099099e+00   4.2932986e-01
  -2.9039039e+00   4.5548356e-01
  -2.8978979e+00   4.8119891e-01
  -2.8918919e+00   5.0645583e-01
  -2.8858859e+00   5.3123489e-01
  -2.8798799e+00   5.5551737e-01
  -2.8738739e+00   5.7928521e-01
  -2.8678679e+00   6.0252105e-01
  -2.8618619e+00   6.2520823e-01
  -2.8558559e+00   6.4733078e-01
  -2.8498498e+00   6.6887343e-01
  -2.8438438e+00   6.8982162e-01
  -2.8378378e+00   7.1016150e-01
  -2.8318318e+00   7.2987991e-01
  -2.8258258e+00   7.4896441e-01
  -2.8198198e+00   7.6740326e-01
  -2.8138138e+00   7.8518544e-01
  -2.8078078e+00   8.0230059e-01
  -2.8018018e+00   8.1873910e-01
  -2.7957958e+00   8.3449202e-01
  -2.7897898e+00   8.4955110e-01
  -2.7837838e+00   8.6390878e-01
  -2.7777778e+00   8.7755816e-01
  -2.7717718e+00   8.9049305e-01
  -2.7657658e+00   9.0270789e-01
  -2.7597598e+00   9.1419779e-01
  -2.7537538e+00   9.2495853e-01
  -2.7477477e+00   9.3498652e-01
  -2.7417417e+00   9.4427879e-01
  -2.7357357e+00   9.5283302e-01
  -2.7297297e+00   9.6064749e-01
  -2.7237237e+00   9.6772109e-01
  -2.7177177e+00   9.7405330e-01
  -2.7117117e+00   9.7964420e-01
  -2.7057057e+00   9.8449444e-01
  -2.6996997e+00   9.8860520e-01
  -2.6936937e+00   9.9197826e-01
  -2.6876877e+00   9.9461590e-01
  -2.6816817e+00   9.9652094e-01
  -2.6756757e+00   9.9769672e-01
  -2.6696697e+00   9.9814707e-01
  -2.6636637e+00   9.9787631e-01
  -2.6576577e+00   9.9688924e-01
  -2.6516517e+00   9.9519112e-01
  -2.6456456e+00   9.9278765e-01
  -2.6396396e+00   9.8968498e-01
  -2.6336336e+00   9.8588966e-01
  -2.6276276e+00   9.8140868e-01
  -2.6216216e+00   9.7624939e-01
  -2.6156156e+00   9.7041955e-01
  -2.6096096e+00   9.6392726e-01
  -2.6036036e+00   9.5678099e-01
  -2.5975976e+00   9.4898955e-01
  -2.5915916e+00   9.4056207e-01
  -2.5855856e+00   9.3150799e-01
  -2.5795796e+00   9.2183705e-01
  -2.5735736e+00   9.1155927e-01
  -2.5675676e+00   9.0068496e-01
  -2.5615616e+00   8.8922466e-01
  -2.5555556e+00   8.7718917e-01
  -2.5495495e+00   8.6458953e-01
  -2.5435435e+00   8.5143697e-01
  -2.5375375e+00   8.3774294e-01
  -2.5315315e+00   8.2351910e-01
  -2.5255255e+00   8.0877725e-01
  -2.5195195e+00   7.9352939e-01
  -2.5135135e+00   7.7778766e-01
  -2.5075075e+00   7.6156433e-01
  -2.5015015e+00   7.4487183e-01
  -2.4954955e+00   7.2772268e-01
  -2.4894895e+00   7.1012951e-01
  -2.4834835e+00   6.9210506e-01
  -2.4774775e+00   6.7366213e-01
  -2.4714715e+00   6.5481361e-01
  -2.4654655e+00   6.3557244e-01
  -2.4594595e+00   6.1595162e-01
  -2.4534535e+00   5.9596418e-01
  -2.4474474e+00   5.7562319e-01
  -2.4414414e+00   5.5494172e-01
  -2.4354354e+00   5.3393286e-01
  -2.4294294e+00   5.1260971e-01
  -2.4234234e+00   4.9098536e-01
  -2.4174174e+00   4.6907285e-01
  -2.4114114e+00   4.4688523e-01
  -2.4054054e+00   4.2443549e-01
  -2.3993994e+00   4.0173660e-01
  -2.3933934e+00   3.7880145e-01
  -2.3873874e+00   3.5564288e-01
  -2.3813814e+00   3.3227368e-01
  -2.3753754e+00   3.0870652e-01
  -2.3693694e+00   2.8495404e-01
  -2.3633634e+00   2.6102876e-01
  -2.3573574e+00   2.3694309e-01
  -2.3513514e+00   2.1270938e-01
  -2.3453453e+00   1.8833984e-01
  -2.3393393e+00   1.6384657e-01
  -2.3333333e+00   1.3924156e-01
  -2.3273273e+00   1.1453665e-01
  -2.3213213e+00   8.9743578e-02
  -2.3153153e+00   6.4873929e-02
  -2.3093093e+00   3.9939151e-02
  -2.3033033e+00   1.4950545e-02
  -2.2972973e+00  -1.0080735e-02
  -2.2912913e+00  -3.5143692e-02
  -2.2852853e+00  -6.0227485e-02
  -2.2792793e+00  -8.5321435e-02
  -2.2732733e+00  -1.1041503e-01
  -2.2672673e+00  -1.3549791e-01
  -2.2612613e+00  -1.6055992e-01
  -2.2552553e+00  -1.8559105e-01
  -2.2492492e+00  -2.1058148e-01
  -2.2432432e+00  -2.3552155e-01
  -2.2372372e+00  -2.6040181e-01
  -2.2312312e+00  -2.8521297e-01
  -2.2252252e+00  -3.0994594e-01
  -2.2192192e+00  -3.3459180e-01
  -2.2132132e+00  -3.5914184e-01
  -2.2072072e+00  -3.8358752e-01
  -2.2012012e+00  -4.0792051e-01
  -2.1951952e+00  -4.3213264e-01
  -2.1891892e+00  -4.5621597e-01
  -2.1831832e+00  -4.8016272e-01
  -2.1771772e+00  -5.0396533e-01
  -2.1711712e+00  -5.2761642e-01
  -2.1651652e+00  -5.5110881e-01
  -2.1591592e+00  -5.7443550e-01
  -2.1531532e+00  -5.9758971e-01
  -2.1471471e+00  -6.2056482e-01
  -2.1411411e+00  -6.4335444e-01
  -2.1351351e+00  -6.6595234e-01
  -2.1291291e+00  -6.8835250e-01
  -2.1231231e+00  -7.1054910e-01
  -2.1171171e+00  -7.3253649e-01
  -2.1111111e+00  -7.5430922e-01
  -2.1051051e+00  -7.7586202e-01
  -2.0990991e+00  -7.9718984e-01
  -2.0930931e+00  -8.1828777e-01
  -2.0870871e+00  -8.3915112e-01
  -2.0810811e+00  -8.5977536e-01
  -2.0750751e+00  -8.8015616e-01
  -2.0690691e+00  -9.0028937e-01
  -2.0630631e+00  -9.2017101e-01
  -2.0570571e+00  -9.3979727e-01
  -2.0510511e+00  -9.5916454e-01
  -2.0450450e+00  -9.7826936e-01
  -2.0390390e+00  -9.9710845e-01
  -2.0330330e+00  -1.0156787e+00
  -2.0270270e+00  -1.0339772e+00
  -2.0210210e+00  -1.0520011e+00
  -2.0150150e+00  -1.0697478e+00
  -2.0090090e+00  -1.0872150e+00
  -2.0030030e+00  -1.1044002e+00
  -1.9969970e+00  -1.1213013e+00
  -1.9909910e+00  -1.1379164e+00
  -1.9849850e+00  -1.1542437e+00
  -1.9789790e+00  -1.1702813e+00
  -1.9729730e+00  -1.1860279e+00
  -1.9669670e+00  -1.2014820e+00
  -1.9609610e+00  -1.2166423e+00
  -1.9549550e+00  -1.2315078e+00
  -1.9489489e+00  -1.2460775e+00
  -1.9429429e+00  -1.2603505e+00
  -1.9369369e+00  -1.2743262e+00
  -1.9309309e+00  -1.2880038e+00
  -1.9249249e+00  -1.3013831e+00
  -1.9189189e+00  -1.3144636e+00
  -1.9129129e+00  -1.3272452e+00
  -1.9069069e+00  -1.3397277e+00
  -1.9009009e+00  -1.3519112e+00
  -1.8948949e+00  -1.3637958e+00
  -1.8888889e+00  -1.3753818e+00
  -1.8828829e+00  -1.3866695e+00
  -1.8768769e+00  -1.3976594e+00
  -1.8708709e+00  -1.4083521e+00
  -1.8648649e+00  -1.4187481e+00
  -1.8588589e+00  -1.4288483e+00
  -1.8528529e+00  -1.4386536e+00
  -1.8468468e+00  -1.4481648e+00
  -1.8408408e+00  -1.4573830e+00
  -1.8348348e+00  -1.4663094e+00
  -1.8288288e+00  -1.4749451e+00
  -1.8228228e+00  -1.4832915e+00
  -1.8168168e+00  -1.4913498e+00
  -1.8108108e+00  -1.4991217e+00
  -1.8048048e+00  -1.5066085e+00
  -1.7987988e+00  -1.5138119e+00
  -1.7927928e+00  -1.5207336e+00
  -1.7867868e+00  -1.5273752e+00
  -1.7807808e+00  -1.5337387e+00
  -1.7747748e+00  -1.5398257e+00
  -1.7687688e+00  -1.5456384e+00
  -1.7627628e+00  -1.5511786e+00
  -1.7567568e+00  -1.5564484e+00
  -1.7507508e+00  -1.5614498e+00
  -1.7447447e+00  -1.5661851e+00
  -1.7387387e+00  -1.5706564e+00
  -1.7327327e+00  -1.5748660e+00
  -1.7267267e+00  -1.5788161e+00
  -1.7207207e+00  -1.5825090e+00
  -1.7147147e+00  -1.5859472e+00
  -1.7087087e+00  -1.5891331e+00
  -1.7027027e+00  -1.5920690e+00
  -1.6966967e+00  -1.5947575e+00
  -1.6906907e+00  -1.5972012e+00
  -1.6846847e+00  -1.5994024e+00
  -1.6786787e+00  -1.6013639e+00
  -1.6726727e+00  -1.6030882e+00
  -1.6666667e+00  -1.6045779e+00
  -1.6606607e+00  -1.6058358e+00
  -1.6546547e+00  -1.6068644e+00
  -1.6486486e+00  -1.6076666e+00
  -1.6426426e+00  -1.6082449e+00
  -1.6366366e+00  -1.6086022e+00
  -1.6306306e+00  -1.6087411e+00
  -1.6246246e+00  -1.6086646e+00
  -1.6186186e+00  -1.6083753e+00
  -1.6126126e+00  -1.6078760e+00
  -1.6066066e+00  -1.6071696e+00
  -1.6006006e+00  -1.6062588e+00
  -1.5945946e+00  -1.6051465e+00
  -1.5885886e+00  -1.6038355e+00
  -1.5825826e+00  -1.6023287e+00
  -1.5765766e+00  -1.6006288e+00
  -1.5705706e+00  -1.5987387e+00
  -1.5645646e+00  -1.5966613e+00
  -1.5585586e+00  -1.5943994e+00
  -1.5525526e+00  -1.5919558e+00
  -1.5465465e+00  -1.5893334e+00
  -1.5405405e+00  -1.5865350e+00
  -1.5345345e+00  -1.5835634e+00
  -1.5285285e+00  -1.5804215e+00
  -1.5225225e+00  -1.5771120e+00
  -1.5165165e+00  -1.5736379e+00
  -1.5105105e+00  -1.5700018e+00
  -1.5045045e+00  -1.5662067e+00
  -1.4984985e+00  -1.5622552e+00
  -1.4924925e+00  -1.5581501e+00
  -1.4864865e+00  -1.5538943e+00
  -1.4804805e+00  -1.5494904e+00
  -1.4744745e+00  -1.5449412e+00
  -1.4684685e+00  -1.5402495e+00
  -1.4624625e+00  -1.5354178e+00
  -1.4564565e+00  -1.5304490e+00
  -1.4504505e+00  -1.5253458e+00
  -1.4444444e+00  -1.5201106e+00
  -1.4384384e+00  -1.5147463e+00
  -1.4324324e+00  -1.5092555e+00
  -1.4264264e+00  -1.5036407e+00
  -1.4204204e+00  -1.4979046e+00
  -1.4144144e+00  -1.4920496e+00
  -1.4084084e+00  -1.4860785e+00
  -1.4024024e+00  -1.4799937e+00
  -1.3963964e+00  -1.4737977e+00
  -1.3903904e+00  -1.4674930e+00
  -1.3843844e+00  -1.4610820e+00
  -1.3783784e+00  -1.4545674e+00
  -1.3723724e+00  -1.4479514e+00
  -1.3663664e+00  -1.4412364e+00
  -1.3603604e+00  -1.4344249e+00
  -1.3543544e+00  -1.4275192e+00
  -1.3483483e+00  -1.4205217e+00
  -1.3423423e+00  -1.4134346e+00
  -1.3363363e+00  -1.4062603e+00
  -1.3303303e+00  -1.3990010e+00
  -1.3243243e+00  -1.3916589e+00
  -1.3183183e+00  -1.3842363e+00
  -1.3123123e+00  -1.3767354e+00
  -1.3063063e+00  -1.3691583e+00
  -1.3003003e+00  -1.3615072e+00
  -1.2942943e+00  -1.3537842e+00
  -1.2882883e+00  -1.3459913e+00
  -1.2822823e+00  -1.3381308e+00
  -1.2762763e+00  -1.3302045e+00
  -1.2702703e+00  -1.3222146e+00
  -1.2642643e+00  -1.3141629e+00
  -1.2582583e+00  -1.3060515e+00
  -1.2522523e+00  -1.2978824e+00
  -1.2462462e+00  -1.2896574e+00
  -1.2402402e+00  -1.2813784e+00
  -1.2342342e+00  -1.2730473e+00
  -1.2282282e+00  -1.2646659e+00
  -1.2222222e+00  -1.2562361e+00
  -1.2162162e+00  -1.2477596e+00
  -1.2102102e+00  -1.2392382e+00
  -1.2042042e+00  -1.2306737e+00
  -1.1981982e+00  -1.2220677e+00
  -1.1921922e+00  -1.2134219e+00
  -1.1861862e+00  -1.2047381e+00
  -1.1801802e+00  -1.1960177e+00
  -1.1741742e+00  -1.1872626e+00
  -1.1681682e+00  -1.1784741e+00
  -1.1621622e+00  -1.1696540e+00
  -1.1561562e+00  -1.1608037e+00
  -1.1501502e+00  -1.1519248e+00
  -1.1441441e+00  -1.1430187e+00
  -1.1381381e+00  -1.1340870e+00
  -1.1321321e+00  -1.1251310e+00
  -1.1261261e+00  -1.1161521e+00
  -1.1201201e+00  -1.1071519e+00
  -1.1141141e+00  -1.0981316e+00
  -1.1081081e+00  -1.0890926e+00
  -1.1021021e+00  -1.0800362e+00
  -1.0960961e+00  -1.0709637e+00
  -1.0900901e+00  -1.0618764e+00
  -1.0840841e+00  -1.0527756e+00
  -1.0780781e+00  -1.0436624e+00
  -1.0720721e+00  -1.0345382e+00
  -1.0660661e+00  -1.0254040e+00
  -1.0600601e+00  -1.0162611e+00
  -1.0540541e+00  -1.0071106e+00
  -1.0480480e+00  -9.9795361e-01
  -1.0420420e+00  -9.8879126e-01
  -1.0360360e+00  -9.7962463e-01
  -1.0300300e+00  -9.7045477e-01
  -1.0240240e+00  -9.6128272e-01
  -1.0180180e+00  -9.5210951e-01
  -1.0120120e+00  -9.4293613e-01
  -1.0060060e+00  -9.3376357e-01
  -1.0000000e+00  -9.2459279e-01
  -9.9399399e-01  -9.1542473e-01
  -9.8798799e-01  -9.0626030e-01
  -9.8198198e-01  -8.9710043e-01
  -9.7597598e-01  -8.8794597e-01
  -9.6996997e-01  -8.7879782e-01
  -9.6396396e-01  -8.6965680e-01
  -9.5795796e-01  -8.6052376e-01
  -9.5195195e-01  -8.5139950e-01
  -9.4594595e-01  -8.4228481e-01
  -9.3993994e-01  -8.3318048e-01
  -9.3393393e-01  -8.2408726e-01
  -9.2792793e-01  -8.1500589e-01
  -9.2192192e-01  -8.0593711e-01
  -9.1591592e-01  -7.9688162e-01
  -9.0990991e-01  -7.8784011e-01
  -9.0390390e-01  -7.7881326e-01
  -8.9789790e-01  -7.6980174e-01
  -8.9189189e-01  -7.6080618e-01
  -8.8588589e-01  -7.5182723e-01
  -8.7987988e-01  -7.4286549e-01
  -8.7387387e-01  -7.3392157e-01
  -8.6786787e-01  -7.2499605e-01
  -8.6186186e-01  -7.1608951e-01
  -8.5585586e-01  -7.0720250e-01
  -8.4984985e-01  -6.9833557e-01
  -8.4384384e-01  -6.8948925e-01
  -8.3783784e-01  -6.8066405e-01
  -8.3183183e-01  -6.7186049e-01
  -8.2582583e-01  -6.6307905e-01
  -8.1981982e-01  -6.5432021e-01
  -8.1381381e-01  -6.4558443e-01
  -8.0780781e-01  -6.3687217e-01
  -8.0180180e-01  -6.2818388e-01
  -7.9579580e-01  -6.1951997e-01
  -7.8978979e-01  -6.1088088e-01
  -7.8378378e-01  -6.0226700e-01
  -7.7777778e-01  -5.9367873e-01
  -7.7177177e-01  -5.8511645e-01
  -7.6576577e-01  -5.7658055e-01
  -7.5975976e-01  -5.6807137e-01
  -7.5375375e-01  -5.5958928e-01
  -7.4774775e-01  -5.5113462e-01
  -7.4174174e-01  -5.4270772e-01
  -7.3573574e-01  -5.3430890e-01
  -7.2972973e-01  -5.2593847e-01
  -7.2372372e-01  -5.1759674e-01
  -7.1771772e-01  -5.0928401e-01
  -7.1171171e-01  -5.0100056e-01
  -7.0570571e-01  -4.9274666e-01
  -6.9969970e-01  -4.8452259e-01
  -6.9369369e-01  -4.7632860e-01
  -6.8768769e-01  -4.6816495e-01
  -6.8168168e-01  -4.6003188e-01
  -6.7567568e-01  -4.5192962e-01
  -6.6966967e-01  -4.4385840e-01
  -6.6366366e-01  -4.3581845e-01
  -6.5765766e-01  -4.2780997e-01
  -6.5165165e-01  -4.1983318e-01
  -6.4564565e-01  -4.1188827e-01
  -6.3963964e-01  -4.0397543e-01
  -6.3363363e-01  -3.9609484e-01
  -6.2762763e-01  -3.8824670e-01
  -6.2162162e-01  -3.8043116e-01
  -6.1561562e-01  -3.7264840e-01
  -6.0960961e-01  -3.6489857e-01
  -6.0360360e-01  -3.5718184e-01
  -5.9759760e-01  -3.4949834e-01
  -5.9159159e-01  -3.4184822e-01
  -5.8558559e-01  -3.3423162e-01
  -5.7957958e-01  -3.2664868e-01
  -5.7357357e-01  -3.1909951e-01
  -5.6756757e-01  -3.1158424e-01
  -5.6156156e-01  -3.0410298e-01
  -5.5555556e-01  -2.9665586e-01
  -5.4954955e-01  -2.8924297e-01
  -5.4354354e-01  -2.8186442e-01
  -5.3753754e-01  -2.7452031e-01
  -5.3153153e-01  -2.6721074e-01
  -5.2552553e-01  -2.5993579e-01
  -5.1951952e-01  -2.5269555e-01
  -5.1351351e-01  -2.4549010e-01
  -5.0750751e-01  -2.3831953e-01
  -5.0150150e-01  -2.3118390e-01
  -4.9549550e-01  -2.2408330e-01
  -4.8948949e-01  -2.1701778e-01
  -4.8348348e-01  -2.0998742e-01
  -4.7747748e-01  -2.0299227e-01
  -4.7147147e-01  -1.9603240e-01
  -4.6546547e-01  -1.8910786e-01
  -4.5945946e-01  -1.8221870e-01
  -4.5345345e-01  -1.7536498e-01
  -4.4744745e-01  -1.6854674e-01
  -4.4144144e-01  -1.6176402e-01
  -4.3543544e-01  -1.5501688e-01
  -4.2942943e-01  -1.4830534e-01
  -4.2342342e-01  -1.4162946e-01
  -4.1741742e-01  -1.3498926e-01
  -4.1141141e-01  -1.2838477e-01
  -4.0540541e-01  -1.2181604e-01
  -3.9939940e-01  -1.1528308e-01
  -3.9339339e-01  -1.0878594e-01
  -3.8738739e-01  -1.0232462e-01
  -3.8138138e-01  -9.5899164e-02
  -3.7537538e-01  -8.9509587e-02
  -3.6936937e-01  -8.3155911e-02
  -3.6336336e-01  -7.6838155e-02
  -3.5735736e-01  -7.0556339e-02
  -3.5135135e-01  -6.4310478e-02
  -3.4534535e-01  -5.8100589e-02
  -3.3933934e-01  -5.1926686e-02
  -3.3333333e-01  -4.5788781e-02
  -3.2732733e-01  -3.9686888e-02
  -3.2132132e-01  -3.3621016e-02
  -3.1531532e-01  -2.7591175e-02
  -3.0930931e-01  -2.1597376e-02
  -3.0330330e-01  -1.5639626e-02
  -2.9729730e-01  -9.7179317e-03
  -2.9129129e-01  -3.8323005e-03
  -2.8528529e-01   2.0172621e-03
  -2.7927928e-01   7.8307509e-03
  -2.7327327e-01   1.3608162e-02
  -2.6726727e-01   1.9349490e-02
  -2.6126126e-01   2.5054733e-02
  -2.5525526e-01   3.0723888e-02
  -2.4924925e-01   3.6356953e-02
  -2.4324324e-01   4.1953925e-02
  -2.3723724e-01   4.7514803e-02
  -2.3123123e-01   5.3039586e-02
  -2.2522523e-01   5.8528274e-02
  -2.1921922e-01   6.3980865e-02
  -2.1321321e-01   6.9397360e-02
  -2.0720721e-01   7.4777758e-02
  -2.0120120e-01   8.0122061e-02
  -1.9519520e-01   8.5430268e-02
  -1.8918919e-01   9.0702379e-02
  -1.8318318e-01   9.5938397e-02
  -1.7717718e-01   1.0113832e-01
  -1.7117117e-01   1.0630215e-01
  -1.6516517e-01   1.1142989e-01
  -1.5915916e-01   1.1652154e-01
  -1.5315315e-01   1.2157710e-01
  -1.4714715e-01   1.2659658e-01
  -1.4114114e-01   1.3157996e-01
  -1.3513514e-01   1.3652727e-01
  -1.2912913e-01   1.4143848e-01
  -1.2312312e-01   1.4631362e-01
  -1.1711712e-01   1.5115267e-01
  -1.1111111e-01   1.5595564e-01
  -1.0510511e-01   1.6072253e-01
  -9.9099099e-02   1.6545334e-01
  -9.3093093e-02   1.7014808e-01
  -8.7087087e-02   1.7480674e-01
  -8.1081081e-02   1.7942932e-01
  -7.5075075e-02   1.8401582e-01
  -6.9069069e-02   1.8856625e-01
  -6.3063063e-02   1.9308061e-01
  -5.7057057e-02   1.9755889e-01
  -5.1051051e-02   2.0200110e-01
  -4.5045045e-02   2.0640724e-01
  -3.9039039e-02   2.1077730e-01
  -3.3033033e-02   2.1511129e-01
  -2.7027027e-02   2.1940921e-01
  -2.1021021e-02   2.2367105e-01
  -1.5015015e-02   2.2789683e-01
  -9.0090090e-03   2.3208653e-01
  -3.0030030e-03   2.3624016e-01
   3.0030030e-03   2.4035772e-01
   9.0090090e-03   2.4443920e-01
   1.5015015e-02   2.4848461e-01
   2.1021021e-02   2.5249395e-01
   2.7027027e-02   2.5646722e-01
   3.3033033e-02   2.6040442e-01
   3.9039039e-02   2.6430555e-01
   4.5045045e-02   2.6817060e-01
   5.1051051e-02   2.7199958e-01
   5.7057057e-02   2.7579249e-01
   6.3063063e-02   2.7954934e-01
   6.9069069e-02   2.8327011e-01
   7.5075075e-02   2.8695481e-01
   8.1081081e-02   2.9060345e-01
   8.7087087e-02   2.9421602e-01
   9.3093093e-02   2.9779252e-01
   9.9099099e-02   3.0133296e-01
   1.0510511e-01   3.0483734e-01
   1.1111111e-01   3.0830566e-01
   1.1711712e-01   3.1173792e-01
   1.2312312e-01   3.1513413e-01
   1.2912913e-01   3.1849429e-01
   1.3513514e-01   3.2181840e-01
   1.4114114e-01   3.2510647e-01
   1.4714715e-01   3.2835849e-01
   1.5315315e-01   3.3157449e-01
   1.5915916e-01   3.3475445e-01
   1.6516517e-01   3.3789839e-01
   1.7117117e-01   3.4100632e-01
   1.7717718e-01   3.4407823e-01
   1.8318318e-01   3.4711414e-01
   1.8918919e-01   3.5011406e-01
   1.9519520e-01   3.5307799e-01
   2.0120120e-01   3.5600594e-01
   2.0720721e-01   3.5889792e-01
   2.1321321e-01   3.6175395e-01
   2.1921922e-01   3.6457403e-01
   2.2522523e-01   3.6735818e-01
   2.3123123e-01   3.7010641e-01
   2.3723724e-01   3.7281873e-01
   2.4324324e-01   3.7549516e-01
   2.4924925e-01   3.7813571e-01
   2.5525526e-01   3.8074040e-01
   2.6126126e-01   3.8330925e-01
   2.6726727e-01   3.8584227e-01
   2.7327327e-01   3.8833948e-01
   2.7927928e-01   3.9080091e-01
   2.8528529e-01   3.9322658e-01
   2.9129129e-01   3.9561650e-01
   2.9729730e-01   3.9797070e-01
   3.0330330e-01   4.0028921e-01
   3.0930931e-01   4.0257204e-01
   3.1531532e-01   4.0481924e-01
   3.2132132e-01   4.0703082e-01
   3.2732733e-01   4.0920682e-01
   3.3333333e-01   4.1134726e-01
   3.3933934e-01   4.1345218e-01
   3.4534535e-01   4.1552161e-01
   3.5135135e-01   4.1755559e-01
   3.5735736e-01   4.1955414e-01
   3.6336336e-01   4.2151732e-01
   3.6936937e-01   4.2344515e-01
   3.7537538e-01   4.2533769e-01
   3.8138138e-01   4.2719496e-01
   3.8738739e-01   4.2901701e-01
   3.9339339e-01   4.3080389e-01
   3.9939940e-01   4.3255565e-01
   4.0540541e-01   4.3427232e-01
   4.1141141e-01   4.3595397e-01
   4.1741742e-01   4.3760065e-01
   4.2342342e-01   4.3921240e-01
   4.2942943e-01   4.4078927e-01
   4.3543544e-01   4.4233134e-01
   4.4144144e-01   4.4383865e-01
   4.4744745e-01   4.4531127e-01
   4.5345345e-01   4.4674925e-01
   4.5945946e-01   4.4815267e-01
   4.6546547e-01   4.4952158e-01
   4.7147147e-01   4.5085605e-01
   4.7747748e-01   4.5215616e-01
   4.8348348e-01   4.5342197e-01
   4.8948949e-01   4.5465356e-01
   4.9549550e-01   4.5585100e-01
   5.0150150e-01   4.5701436e-01
   5.0750751e-01   4.5814374e-01
   5.1351351e-01   4.5923920e-01
   5.1951952e-01   4.6030083e-01
   5.2552553e-01   4.6132872e-01
   5.3153153e-01   4.6232296e-01
   5.3753754e-01   4.6328362e-01
   5.4354354e-01   4.6421081e-01
   5.4954955e-01   4.6510462e-01
   5.5555556e-01   4.6596514e-01
   5.6156156e-01   4.6679247e-01
   5.6756757e-01   4.6758671e-01
   5.7357357e-01   4.6834796e-01
   5.7957958e-01   4.6907632e-01
   5.8558559e-01   4.6977191e-01
   5.9159159e-01   4.7043483e-01
   5.9759760e-01   4.7106519e-01
   6.0360360e-01   4.7166311e-01
   6.0960961e-01   4.7222870e-01
   6.1561562e-01   4.7276207e-01
   6.2162162e-01   4.7326335e-01
   6.2762763e-01   4.7373266e-01
   6.3363363e-01   4.7417012e-01
   6.3963964e-01   4.7457586e-01
   6.4564565e-01   4.7495001e-01
   6.5165165e-01   4.7529270e-01
   6.5765766e-01   4.7560406e-01
   6.6366366e-01   4.7588423e-01
   6.6966967e-01   4.7613334e-01
   6.7567568e-01   4.7635154e-01
   6.8168168e-01   4.7653897e-01
   6.8768769e-01   4.7669577e-01
   6.9369369e-01   4.7682210e-01
   6.9969970e-01   4.7691809e-01
   7.0570571e-01   4.7698390e-01
   7.1171171e-01   4.7701969e-01
   7.1771772e-01   4.7702561e-01
   7.2372372e-01   4.7700182e-01
   7.2972973e-01   4.7694848e-01
   7.3573574e-01   4.7686576e-01
   7.4174174e-01   4.7675381e-01
   7.4774775e-01   4.7661281e-01
   7.5375375e-01   4.7644292e-01
   7.5975976e-01   4.7624433e-01
   7.6576577e-01   4.7601719e-01
   7.7177177e-01   4.7576169e-01
   7.7777778e-01   4.7547801e-01
   7.8378378e-01   4.7516633e-01
   7.8978979e-01   4.7482683e-01
   7.9579580e-01   4.7445970e-01
   8.0180180e-01   4.7406512e-01
   8.0780781e-01   4.7364328e-01
   8.1381381e-01   4.7319438e-01
   8.1981982e-01   4.7271860e-01
   8.2582583e-01   4.7221615e-01
   8.3183183e-01   4.7168722e-01
   8.3783784e-01   4.7113201e-01
   8.4384384e-01   4.7055073e-01
   8.4984985e-01   4.6994357e-01
   8.5585586e-01   4.6931074e-01
   8.6186186e-01   4.6865246e-01
   8.6786787e-01   4.6796893e-01
   8.7387387e-01   4.6726036e-01
   8.7987988e-01   4.6652696e-01
   8.8588589e-01   4.6576896e-01
   8.9189189e-01   4.6498656e-01
   8.9789790e-01   4.6418000e-01
   9.0390390e-01   4.6334948e-01
   9.0990991e-01   4.6249523e-01
   9.1591592e-01   4.6161749e-01
   9.2192192e-01   4.6071646e-01
   9.2792793e-01   4.5979238e-01
   9.3393393e-01   4.5884549e-01
   9.3993994e-01   4.5787600e-01
   9.4594595e-01   4.5688416e-01
   9.5195195e-01   4.5587020e-01
   9.5795796e-01   4.5483435e-01
   9.6396396e-01   4.5377685e-01
   9.6996997e-01   4.5269794e-01
   9.7597598e-01   4.5159786e-01
   9.8198198e-01   4.5047686e-01
   9.8798799e-01   4.4933517e-01
   9.9399399e-01   4.4817303e-01
   1.0000000e+00   4.4699071e-01
   1.0060060e+00   4.4578843e-01
   1.0120120e+00   4.4456646e-01
   1.0180180e+00   4.4332503e-01
   1.0240240e+00   4.4206441e-01
   1.0300300e+00   4.4078483e-01
   1.0360360e+00   4.3948656e-01
   1.0420420e+00   4.3816985e-01
   1.0480480e+00   4.3683495e-01
   1.0540541e+00   4.3548212e-01
   1.0600601e+00   4.3411161e-01
   1.0660661e+00   4.3272368e-01
   1.0720721e+00   4.3131860e-01
   1.0780781e+00   4.2989661e-01
   1.0840841e+00   4.2845798e-01
   1.0900901e+00   4.2700297e-01
   1.0960961e+00   4.2553184e-01
   1.1021021e+00   4.2404485e-01
   1.1081081e+00   4.2254226e-01
   1.1141141e+00   4.2102434e-01
   1.1201201e+00   4.1949136e-01
   1.1261261e+00   4.1794356e-01
   1.1321321e+00   4.1638123e-01
   1.1381381e+00   4.1480462e-01
   1.1441441e+00   4.1321399e-01
   1.1501502e+00   4.1160962e-01
   1.1561562e+00   4.0999177e-01
   1.1621622e+00   4.0836070e-01
   1.1681682e+00   4.0671667e-01
   1.1741742e+00   4.0505997e-01
   1.1801802e+00   4.0339084e-01
   1.1861862e+00   4.0170957e-01
   1.1921922e+00   4.0001640e-01
   1.1981982e+00   3.9831161e-01
   1.2042042e+00   3.9659547e-01
   1.2102102e+00   3.9486824e-01
   1.2162162e+00   3.9313018e-01
   1.2222222e+00   3.9138156e-01
   1.2282282e+00   3.8962265e-01
   1.2342342e+00   3.8785370e-01
   1.2402402e+00   3.8607499e-01
   1.2462462e+00   3.8428677e-01
   1.2522523e+00   3.8248931e-01
   1.2582583e+00   3.8068287e-01
   1.2642643e+00   3.7886772e-01
   1.2702703e+00   3.7704411e-01
   1.2762763e+00   3.7521231e-01
   1.2822823e+00   3.7337257e-01
   1.2882883e+00   3.7152515e-01
   1.2942943e+00   3.6967032e-01
   1.3003003e+00   3.6780833e-01
   1.3063063e+00   3.6593943e-01
   1.3123123e+00   3.6406389e-01
   1.3183183e+00   3.6218196e-01
   1.3243243e+00   3.6029388e-01
   1.3303303e+00   3.5839993e-01
   1.3363363e+00   3.5650033e-01
   1.3423423e+00   3.5459536e-01
   1.3483483e+00   3.5268525e-01
   1.3543544e+00   3.5077025e-01
   1.3603604e+00   3.4885061e-01
   1.3663664e+00   3.4692659e-01
   1.3723724e+00   3.4499841e-01
   1.3783784e+00   3.4306633e-01
   1.3843844e+00   3.4113058e-01
   1.3903904e+00   3.3919141e-01
   1.3963964e+00   3.3724906e-01
   1.4024024e+00   3.3530375e-01
   1.4084084e+00   3.3335574e-01
   1.4144144e+00   3.3140524e-01
   1.4204204e+00   3.2945251e-01
   1.4264264e+00   3.2749775e-01
   1.4324324e+00   3.2554121e-01
   1.4384384e+00   3.2358312e-01
   1.4444444e+00   3.2162369e-01
   1.4504505e+00   3.1966315e-01
   1.4564565e+00   3.1770173e-01
   1.4624625e+00   3.1573964e-01
   1.4684685e+00   3.1377710e-01
   1.4744745e+00   3.1181434e-01
   1.4804805e+00   3.0985156e-01
   1.4864865e+00   3.0788897e-01
   1.4924925e+00   3.0592679e-01
   1.4984985e+00   3.0396523e-01
   1.5045045e+00   3.0200449e-01
   1.5105105e+00   3.0004477e-01
   1.5165165e+00   2.9808629e-01
   1.5225225e+00   2.9612923e-01
   1.5285285e+00   2.9417381e-01
   1.5345345e+00   2.9222021e-01
   1.5405405e+00   2.9026862e-01
   1.5465465e+00   2.8831924e-01
   1.5525526e+00   2.8637227e-01
   1.5585586e+00   2.8442788e-01
   1.5645646e+00   2.8248626e-01
   1.5705706e+00   2.8054759e-01
   1.5765766e+00   2.7861206e-01
   1.5825826e+00   2.7667984e-01
   1.5885886e+00   2.7475110e-01
   1.5945946e+00   2.7282603e-01
   1.6006006e+00   2.7090478e-01
   1.6066066e+00   2.6898754e-01
   1.6126126e+00   2.6707446e-01
   1.6186186e+00   2.6516571e-01
   1.6246246e+00   2.6326145e-01
   1.6306306e+00   2.6136184e-01
   1.6366366e+00   2.5946703e-01
   1.6426426e+00   2.5757718e-01
   1.6486486e+00   2.5569244e-01
   1.6546547e+00   2.5381296e-01
   1.6606607e+00   2.5193889e-01
   1.6666667e+00   2.5007036e-01
   1.6726727e+00   2.4820752e-01
   1.6786787e+00   2.4635051e-01
   1.6846847e+00   2.4449947e-01
   1.6906907e+00   2.4265452e-01
   1.6966967e+00   2.4081580e-01
   1.7027027e+00   2.3898344e-01
   1.7087087e+00   2.3715756e-01
   1.7147147e+00   2.3533829e-01
   1.7207207e+00   2.3352575e-01
   1.7267267e+00   2.3172005e-01
   1.7327327e+00   2.2992131e-01
   1.7387387e+00   2.2812965e-01
   1.7447447e+00   2.2634517e-01
   1.7507508e+00   2.2456799e-01
   1.7567568e+00   2.2279820e-01
   1.7627628e+00   2.2103591e-01
   1.7687688e+00   2.1928122e-01
   1.7747748e+00   2.1753424e-01
   1.7807808e+00   2.1579504e-01
   1.7867868e+00   2.1406373e-01
   1.7927928e+00   2.1234040e-01
   1.7987988e+00   2.1062514e-01
   1.8048048e+00   2.0891802e-01
   1.8108108e+00   2.0721913e-01
   1.8168168e+00   2.0552855e-01
   1.8228228e+00   2.0384637e-01
   1.8288288e+00   2.0217264e-01
   1.8348348e+00   2.0050745e-01
   1.8408408e+00   1.9885087e-01
   1.8468468e+00   1.9720296e-01
   1.8528529e+00   1.9556379e-01
   1.8588589e+00   1.9393342e-01
   1.8648649e+00   1.9231190e-01
   1.8708709e+00   1.9069931e-01
   1.8768769e+00   1.8909569e-01
   1.8828829e+00   1.8750110e-01
   1.8888889e+00   1.8591558e-01
   1.8948949e+00   1.8433919e-01
   1.9009009e+00   1.8277196e-01
   1.9069069e+00   1.8121395e-01
   1.9129129e+00   1.7966520e-01
   1.9189189e+00   1.7812573e-01
   1.9249249e+00   1.7659560e-01
   1.9309309e+00   1.7507483e-01
   1.9369369e+00   1.7356345e-01
   1.9429429e+00   1.7206150e-01
   1.9489489e+00   1.7056900e-01
   1.9549550e+00   1.6908597e-01
   1.9609610e+00   1.6761245e-01
   1.9669670e+00   1.6614844e-01
   1.9729730e+00   1.6469397e-01
   1.9789790e+00   1.6324905e-01
   1.9849850e+00   1.6181371e-01
   1.9909910e+00   1.6038794e-01
   1.9969970e+00   1.5897176e-01
   2.0030030e+00   1.5756518e-01
   2.0090090e+00   1.5616820e-01
   2.0150150e+00   1.5478082e-01
   2.0210210e+00   1.5340306e-01
   2.0270270e+00   1.5203490e-01
   2.0330330e+00   1.5067634e-01
   2.0390390e+00   1.4932739e-01
   2.0450450e+00   1.4798802e-01
   2.0510511e+00   1.4665825e-01
   2.0570571e+00   1.4533804e-01
   2.0630631e+00   1.4402740e-01
   2.0690691e+00   1.4272631e-01
   2.0750751e+00   1.4143475e-01
   2.0810811e+00   1.4015270e-01
   2.0870871e+00   1.3888014e-01
   2.0930931e+00   1.3761706e-01
   2.0990991e+00   1.3636342e-01
   2.1051051e+00   1.3511921e-01
   2.1111111e+00   1.3388440e-01
   2.1171171e+00   1.3265895e-01
   2.1231231e+00   1.3144284e-01
   2.1291291e+00   1.3023603e-01
   2.1351351e+00   1.2903850e-01
   2.1411411e+00   1.2785019e-01
   2.1471471e+00   1.2667109e-01
   2.1531532e+00   1.2550115e-01
   2.1591592e+00   1.2434032e-01
   2.1651652e+00   1.2318857e-01
   2.1711712e+00   1.2204585e-01
   2.1771772e+00   1.2091211e-01
   2.1831832e+00   1.1978732e-01
   2.1891892e+00   1.1867142e-01
   2.1951952e+00   1.1756435e-01
   2.2012012e+00   1.1646608e-01
   2.2072072e+00   1.1537654e-01
   2.2132132e+00   1.1429568e-01
   2.2192192e+00   1.1322344e-01
   2.2252252e+00   1.1215977e-01
   2.2312312e+00   1.1110461e-01
   2.2372372e+00   1.1005790e-01
   2.2432432e+00   1.0901956e-01
   2.2492492e+00   1.0798955e-01
   2.2552553e+00   1.0696779e-01
   2.2612613e+00   1.0595422e-01
   2.2672673e+00   1.0494877e-01
   2.2732733e+00   1.0395137e-01
   2.2792793e+00   1.0296195e-01
   2.2852853e+00   1.0198043e-01
   2.2912913e+00   1.0100675e-01
   2.2972973e+00   1.0004082e-01
   2.3033033e+00   9.9082575e-02
   2.3093093e+00   9.8131930e-02
   2.3153153e+00   9.7188807e-02
   2.3213213e+00   9.6253124e-02
   2.3273273e+00   9.5324800e-02
   2.3333333e+00   9.4403750e-02
   2.3393393e+00   9.3489887e-02
   2.3453453e+00   9.2583126e-02
   2.3513514e+00   9.1683378e-02
   2.3573574e+00   9.0790552e-02
   2.3633634e+00   8.9904556e-02
   2.3693694e+00   8.9025299e-02
   2.3753754e+00   8.8152684e-02
   2.3813814e+00   8.7286616e-02
   2.3873874e+00   8.6426998e-02
   2.3933934e+00   8.5573729e-02
   2.3993994e+00   8.4726708e-02
   2.4054054e+00   8.3885834e-02
   2.4114114e+00   8.3051001e-02
   2.4174174e+00   8.2222103e-02
   2.4234234e+00   8.1399034e-02
   2.4294294e+00   8.0581683e-02
   2.4354354e+00   7.9769938e-02
   2.4414414e+00   7.8963688e-02
   2.4474474e+00   7.8162817e-02
   2.4534535e+00   7.7367208e-02
   2.4594595e+00   7.6576743e-02
   2.4654655e+00   7.5791299e-02
   2.4714715e+00   7.5010756e-02
   2.4774775e+00   7.4234988e-02
   2.4834835e+00   7.3463867e-02
   2.4894895e+00   7.2697265e-02
   2.4954955e+00   7.1935051e-02
   2.5015015e+00   7.1177089e-02
   2.5075075e+00   7.0423245e-02
   2.5135135e+00   6.9673380e-02
   2.5195195e+00   6.8927353e-02
   2.5255255e+00   6.8185019e-02
   2.5315315e+00   6.7446234e-02
   2.5375375e+00   6.6710847e-02
   2.5435435e+00   6.5978707e-02
   2.5495495e+00   6.5249659e-02
   2.5555556e+00   6.4523546e-02
   2.5615616e+00   6.3800206e-02
   2.5675676e+00   6.3079476e-02
   2.5735736e+00   6.2361188e-02
   2.5795796e+00   6.1645171e-02
   2.5855856e+00   6.0931252e-02
   2.5915916e+00   6.0219251e-02
   2.5975976e+00   5.9508989e-02
   2.6036036e+00   5.8800278e-02
   2.6096096e+00   5.8092930e-02
   2.6156156e+00   5.7386750e-02
   2.6216216e+00   5.6681541e-02
   2.6276276e+00   5.5977099e-02
   2.6336336e+00   5.5273218e-02
   2.6396396e+00   5.4569685e-02
   2.6456456e+00   5.3866284e-02
   2.6516517e+00   5.3162793e-02
   2.6576577e+00   5.2458983e-02
   2.6636637e+00   5.1754622e-02
   2.6696697e+00   5.1049470e-02
   2.6756757e+00   5.0343284e-02
   2.6816817e+00   4.9635812e-02
   2.6876877e+00   4.8926796e-02
   2.6936937e+00   4.8215973e-02
   2.6996997e+00   4.7503072e-02
   2.7057057e+00   4.6787814e-02
   2.7117117e+00   4.6069914e-02
   2.7177177e+00   4.5349079e-02
   2.7237237e+00   4.4625008e-02
   2.7297297e+00   4.3897390e-02
   2.7357357e+00   4.3165908e-02
   2.7417417e+00   4.2430234e-02
   2.7477477e+00   4.1690031e-02
   2.7537538e+00   4.0944955e-02
   2.7597598e+00   4.0194648e-02
   2.7657658e+00   3.9438743e-02
   2.7717718e+00   3.8676864e-02
   2.7777778e+00   3.7908621e-02
   2.7837838e+00   3.7133614e-02
   2.7897898e+00   3.6351430e-02
   2.7957958e+00   3.5561645e-02
   2.8018018e+00   3.4763819e-02
   2.8078078e+00   3.3957501e-02
   2.8138138e+00   3.3142225e-02
   2.8198198e+00   3.2317509e-02
   2.8258258e+00   3.1482858e-02
   2.8318318e+00   3.0637760e-02
   2.8378378e+00   2.9781686e-02
   2.8438438e+00   2.8914089e-02
   2.8498498e+00   2.8034408e-02
   2.8558559e+00   2.7142059e-02
   2.8618619e+00   2.6236440e-02
   2.8678679e+00   2.5316931e-02
   2.8738739e+00   2.4382889e-02
   2.8798799e+00   2.3433649e-02
   2.8858859e+00   2.2468526e-02
   2.8918919e+00   2.1486807e-02
   2.8978979e+00   2.0487760e-02
   2.9039039e+00   1.9470624e-02
   2.9099099e+00   1.8434612e-02
   2.9159159e+00   1.7378910e-02
   2.9219219e+00   1.6302677e-02
   2.9279279e+00   1.5205038e-02
   2.9339339e+00   1.4085093e-02
   2.9399399e+00   1.2941903e-02
   2.9459459e+00   1.1774502e-02
   2.9519520e+00   1.0581884e-02
   2.9579580e+00   9.3630103e-03
   2.9639640e+00   8.1168020e-03
   2.9699700e+00   6.8421420e-03
   2.9759760e+00   5.5378721e-03
   2.9819820e+00   4.2027915e-03
   2.9879880e+00   2.8356548e-03
   2.9939940e+00   1.4351709e-03
   3.0000000e+00  -1.2212453e-15
